NAME           
MAKE
Frequency     1430
H_WIDTH       0
V_WIDTH       0
FRONT_TO_BACK 0
GAIN          20.00
APERTURE      0.00
BEAM_TILT     0
TILT          0
DEFAULT	     0
Comments

HORIZONTAL 360
000     0.30
001     0.76
002     1.22
003     1.68
004     2.14
005     2.60
006     4.44
007     6.28
008     8.12
009     9.96
010     11.80
011     13.86
012     15.92
013     17.98
014     20.04
015     22.10
016     21.42
017     20.74
018     20.06
019     19.38
020     18.70
021     19.02
022     19.34
023     19.66
024     19.98
025     20.30
026     20.32
027     20.34
028     20.36
029     20.38
030     20.40
031     20.88
032     21.36
033     21.84
034     22.32
035     22.80
036     23.26
037     23.72
038     24.18
039     24.64
040     25.10
041     24.98
042     24.86
043     24.74
044     24.62
045     24.50
046     24.52
047     24.54
048     24.56
049     24.58
050     24.60
051     24.92
052     25.24
053     25.56
054     25.88
055     26.20
056     26.42
057     26.64
058     26.86
059     27.08
060     27.30
061     27.40
062     27.50
063     27.60
064     27.70
065     27.80
066     27.88
067     27.96
068     28.04
069     28.12
070     28.20
071     28.30
072     28.40
073     28.50
074     28.60
075     28.70
076     28.92
077     29.14
078     29.36
079     29.58
080     29.80
081     30.26
082     30.72
083     31.18
084     31.64
085     32.10
086     32.86
087     33.62
088     34.38
089     35.14
090     35.90
091     37.06
092     38.22
093     39.38
094     40.54
095     41.70
096     41.56
097     41.42
098     41.28
099     41.14
100     41.00
101     40.32
102     39.64
103     38.96
104     38.28
105     37.60
106     37.56
107     37.52
108     37.48
109     37.44
110     37.40
111     37.26
112     37.12
113     36.98
114     36.84
115     36.70
116     36.24
117     35.78
118     35.32
119     34.86
120     34.40
121     34.76
122     35.12
123     35.48
124     35.84
125     36.20
126     36.58
127     36.96
128     37.34
129     37.72
130     38.10
131     37.34
132     36.58
133     35.82
134     35.06
135     34.30
136     35.26
137     36.22
138     37.18
139     38.14
140     39.10
141     38.36
142     37.62
143     36.88
144     36.14
145     35.40
146     35.42
147     35.44
148     35.46
149     35.48
150     35.50
151     35.92
152     36.34
153     36.76
154     37.18
155     37.60
156     37.00
157     36.40
158     35.80
159     35.20
160     34.60
161     35.40
162     36.20
163     37.00
164     37.80
165     38.60
166     37.14
167     35.68
168     34.22
169     32.76
170     31.30
171     33.36
172     35.42
173     37.48
174     39.54
175     41.60
176     39.36
177     37.12
178     34.88
179     32.64
180     30.40
181     32.68
182     34.96
183     37.24
184     39.52
185     41.80
186     39.68
187     37.56
188     35.44
189     33.32
190     31.20
191     33.38
192     35.56
193     37.74
194     39.92
195     42.10
196     40.54
197     38.98
198     37.42
199     35.86
200     34.30
201     35.60
202     36.90
203     38.20
204     39.50
205     40.80
206     39.72
207     38.64
208     37.56
209     36.48
210     35.40
211     35.78
212     36.16
213     36.54
214     36.92
215     37.30
216     37.68
217     38.06
218     38.44
219     38.82
220     39.20
221     38.36
222     37.52
223     36.68
224     35.84
225     35.00
226     36.28
227     37.56
228     38.84
229     40.12
230     41.40
231     40.44
232     39.48
233     38.52
234     37.56
235     36.60
236     36.46
237     36.32
238     36.18
239     36.04
240     35.90
241     36.68
242     37.46
243     38.24
244     39.02
245     39.80
246     39.68
247     39.56
248     39.44
249     39.32
250     39.20
251     39.42
252     39.64
253     39.86
254     40.08
255     40.30
256     42.74
257     45.18
258     47.62
259     50.06
260     52.50
261     50.38
262     48.26
263     46.14
264     44.02
265     41.90
266     40.58
267     39.26
268     37.94
269     36.62
270     35.30
271     34.58
272     33.86
273     33.14
274     32.42
275     31.70
276     31.22
277     30.74
278     30.26
279     29.78
280     29.30
281     29.00
282     28.70
283     28.40
284     28.10
285     27.80
286     27.68
287     27.56
288     27.44
289     27.32
290     27.20
291     27.14
292     27.08
293     27.02
294     26.96
295     26.90
296     26.82
297     26.74
298     26.66
299     26.58
300     26.50
301     26.22
302     25.94
303     25.66
304     25.38
305     25.10
306     24.84
307     24.58
308     24.32
309     24.06
310     23.80
311     23.90
312     24.00
313     24.10
314     24.20
315     24.30
316     24.50
317     24.70
318     24.90
319     25.10
320     25.30
321     24.88
322     24.46
323     24.04
324     23.62
325     23.20
326     22.74
327     22.28
328     21.82
329     21.36
330     20.90
331     20.86
332     20.82
333     20.78
334     20.74
335     20.70
336     20.36
337     20.02
338     19.68
339     19.34
340     19.00
341     19.50
342     20.00
343     20.50
344     21.00
345     21.50
346     19.86
347     18.22
348     16.58
349     14.94
350     13.30
351     11.26
352     9.22
353     7.18
354     5.14
355     3.10
356     2.54
357     1.98
358     1.42
359     0.86

VERTICAL 179
089     34.50
088     33.70
087     33.00
086     32.30
085     31.70
084     31.10
083     30.60
082     30.10
081     29.70
080     29.30
079     28.90
078     28.60
077     28.30
076     28.00
075     27.80
074     27.60
073     27.50
072     27.40
071     27.30
070     27.20
069     27.10
068     27.10
067     27.00
066     27.00
065     26.90
064     26.90
063     26.90
062     26.80
061     26.70
060     26.50
059     26.30
058     26.10
057     25.80
056     25.50
055     25.10
054     24.80
053     24.50
052     24.20
051     24.00
050     23.80
049     23.80
048     23.80
047     23.90
046     24.10
045     24.30
044     24.60
043     24.90
042     25.20
041     25.30
040     25.30
039     25.10
038     24.80
037     24.30
036     23.80
035     23.20
034     22.60
033     22.10
032     21.60
031     21.20
030     20.90
029     20.70
028     20.60
027     20.50
026     20.60
025     20.70
024     20.60
023     20.50
022     20.10
021     19.60
020     19.00
019     18.60
018     18.40
017     18.70
016     19.50
015     21.50
014     25.50
013     31.60
012     23.70
011     17.40
010     13.30
009     10.20
008     7.80
007     5.90
006     4.30
005     3.10
004     2.10
003     1.30
002     0.80
001     0.40
000     0.30
-01     0.30
-02     0.60
-03     1.00
-04     1.70
-05     2.60
-06     3.80
-07     5.20
-08     6.90
-09     9.10
-10     11.80
-11     15.30
-12     19.90
-13     25.70
-14     25.80
-15     22.10
-16     19.90
-17     18.80
-18     18.30
-19     18.40
-20     18.70
-21     19.20
-22     19.70
-23     20.10
-24     20.30
-25     20.30
-26     20.20
-27     20.10
-28     20.10
-29     20.20
-30     20.40
-31     20.70
-32     21.10
-33     21.60
-34     22.20
-35     22.80
-36     23.40
-37     24.00
-38     24.50
-39     24.90
-40     25.10
-41     25.10
-42     25.10
-43     24.90
-44     24.70
-45     24.50
-46     24.40
-47     24.30
-48     24.40
-49     24.50
-50     24.60
-51     24.90
-52     25.20
-53     25.50
-54     25.80
-55     26.20
-56     26.50
-57     26.80
-58     27.00
-59     27.20
-60     27.30
-61     27.50
-62     27.60
-63     27.60
-64     27.70
-65     27.80
-66     27.90
-67     28.00
-68     28.10
-69     28.10
-70     28.20
-71     28.30
-72     28.40
-73     28.50
-74     28.60
-75     28.70
-76     28.80
-77     29.00
-78     29.20
-79     29.50
-80     29.80
-81     30.10
-82     30.50
-83     31.00
-84     31.50
-85     32.10
-86     32.70
-87     33.40
-88     34.10
-89     35.00
